Data from AuNP_AgNP_532nm_50mJ_10min_Absorbance_16-34-50-233.txt Node
Date: Mon Jan 23 16:34:50 EST 2023
User: UV-vis
Spectrometer: FLMS04918
Trigger mode: 0
Integration Time (sec): 1.002000E-2
Scans to average: 10
Electric dark correction enabled: true
Nonlinearity correction enabled: false
Boxcar width: 10
XAxis mode: Wavelengths
Number of Pixels in Spectrum: 2048
>>>>>Begin Spectral Data<<<<<
179.23	0.14799
179.611	0.20932
179.992	0.14562
180.373	0.15301
180.754	0.15419
181.134	0.19255
181.515	0.1711
181.896	0.18898
182.276	0.13319
182.657	0.16018
183.038	0.10651
183.418	0.09435
183.799	0.05858
184.179	0.43351
184.56	0.37246
184.94	0.381
185.32	0.37892
185.701	0.37128
186.081	0.37283
186.461	0.37328
186.842	0.37516
187.222	0.37514
187.602	0.37646
187.982	0.37496
188.362	0.37622
188.742	0.3762
189.122	0.37763
189.502	0.37772
189.882	0.37818
190.262	0.37849
190.642	0.37882
191.022	0.37843
191.402	0.37816
191.781	0.37838
192.161	0.37746
192.541	0.37788
192.92	0.37734
193.3	0.37771
193.68	0.3794
194.059	0.38004
194.439	0.38071
194.818	0.38152
195.198	0.38223
195.577	0.38336
195.957	0.38472
196.336	0.38521
196.715	0.38622
197.094	0.38581
197.474	0.38653
197.853	0.38754
198.232	0.38726
198.611	0.38892
198.99	0.3887
199.369	0.39056
199.748	0.39043
200.127	0.39232
200.506	0.39408
200.885	0.39561
201.264	0.39649
201.643	0.39689
202.022	0.39755
202.401	0.39807
202.779	0.39818
203.158	0.39915
203.537	0.39823
203.915	0.39761
204.294	0.39791
204.673	0.39874
205.051	0.40033
205.43	0.40065
205.808	0.40079
206.187	0.40177
206.565	0.40153
206.943	0.40351
207.322	0.40312
207.7	0.40467
208.078	0.40485
208.456	0.4045
208.835	0.40432
209.213	0.40545
209.591	0.40571
209.969	0.40624
210.347	0.40753
210.725	0.40828
211.103	0.40819
211.481	0.4096
211.859	0.41059
212.237	0.41071
212.614	0.41008
212.992	0.41024
213.37	0.41109
213.748	0.41335
214.125	0.41442
214.503	0.41486
214.881	0.41528
215.258	0.41628
215.636	0.41683
216.013	0.41758
216.391	0.41809
216.768	0.41916
217.145	0.41862
217.523	0.41931
217.9	0.41942
218.277	0.419
218.655	0.41993
219.032	0.42119
219.409	0.4216
219.786	0.42304
220.163	0.42455
220.54	0.42511
220.917	0.42507
221.294	0.42633
221.671	0.42539
222.048	0.42549
222.425	0.42553
222.802	0.42564
223.179	0.42631
223.556	0.42655
223.932	0.42762
224.309	0.42841
224.686	0.4284
225.062	0.42958
225.439	0.43004
225.815	0.43123
226.192	0.43155
226.568	0.43149
226.945	0.43173
227.321	0.43284
227.698	0.43329
228.074	0.43315
228.45	0.43472
228.827	0.43605
229.203	0.43651
229.579	0.43647
229.955	0.43743
230.331	0.43843
230.707	0.43962
231.083	0.44004
231.46	0.44191
231.835	0.44144
232.211	0.44234
232.587	0.44277
232.963	0.4438
233.339	0.44399
233.715	0.44485
234.091	0.44621
234.466	0.44747
234.842	0.44827
235.218	0.44851
235.593	0.44926
235.969	0.45076
236.344	0.45146
236.72	0.45204
237.095	0.45184
237.471	0.45306
237.846	0.45375
238.222	0.45537
238.597	0.45674
238.972	0.45785
239.348	0.45814
239.723	0.45941
240.098	0.45978
240.473	0.4617
240.848	0.46347
241.223	0.46491
241.598	0.46585
241.973	0.46792
242.348	0.4695
242.723	0.47054
243.098	0.47201
243.473	0.47324
243.848	0.47481
244.223	0.47573
244.597	0.47767
244.972	0.48001
245.347	0.48218
245.721	0.48479
246.096	0.48639
246.47	0.48782
246.845	0.48917
247.219	0.49122
247.594	0.49277
247.968	0.4951
248.343	0.49753
248.717	0.49905
249.091	0.50117
249.466	0.50239
249.84	0.50317
250.214	0.50504
250.588	0.50762
250.962	0.50991
251.336	0.51204
251.71	0.51343
252.084	0.51561
252.458	0.51687
252.832	0.51937
253.206	0.52113
253.58	0.52169
253.954	0.52398
254.328	0.52627
254.702	0.52898
255.075	0.53101
255.449	0.53413
255.823	0.53656
256.196	0.53759
256.57	0.53958
256.943	0.54234
257.317	0.54525
257.69	0.5485
258.064	0.55071
258.437	0.55254
258.81	0.55528
259.184	0.55732
259.557	0.5605
259.93	0.56299
260.303	0.56529
260.677	0.56693
261.05	0.56939
261.423	0.57174
261.796	0.57399
262.169	0.57626
262.542	0.57826
262.915	0.58098
263.288	0.58282
263.661	0.58436
264.033	0.5876
264.406	0.58974
264.779	0.59207
265.152	0.59497
265.524	0.59756
265.897	0.60037
266.27	0.60373
266.642	0.60545
267.015	0.60884
267.387	0.61118
267.76	0.61464
268.132	0.61869
268.504	0.62261
268.877	0.62595
269.249	0.63023
269.621	0.6332
269.994	0.63697
270.366	0.64106
270.738	0.64429
271.11	0.64806
271.482	0.6531
271.854	0.65725
272.226	0.66292
272.598	0.6684
272.97	0.67344
273.342	0.67864
273.714	0.68381
274.086	0.68989
274.458	0.69692
274.829	0.70317
275.201	0.7101
275.573	0.71636
275.944	0.72312
276.316	0.73025
276.688	0.73802
277.059	0.74637
277.431	0.75764
277.802	0.77054
278.173	0.78878
278.545	0.81704
278.916	0.85658
279.287	0.91059
279.659	0.97656
280.03	1.04027
280.401	1.08768
280.772	1.11874
281.143	1.13596
281.515	1.14319
281.886	1.14181
282.257	1.13445
282.628	1.1227
282.998	1.10797
283.369	1.09087
283.74	1.07292
284.111	1.05416
284.482	1.03473
284.853	1.01491
285.223	0.99469
285.594	0.9751
285.965	0.95538
286.335	0.9342
286.706	0.91179
287.076	0.88716
287.447	0.85971
287.817	0.83017
288.188	0.80184
288.558	0.77536
288.928	0.75032
289.299	0.72661
289.669	0.70455
290.039	0.68385
290.409	0.66404
290.779	0.64576
291.149	0.62851
291.52	0.61227
291.89	0.59752
292.26	0.58344
292.629	0.57042
292.999	0.55832
293.369	0.54677
293.739	0.53599
294.109	0.52604
294.479	0.51677
294.848	0.50792
295.218	0.49917
295.588	0.49062
295.957	0.48208
296.327	0.47363
296.696	0.4651
297.066	0.45685
297.435	0.44864
297.805	0.43996
298.174	0.43155
298.544	0.42292
298.913	0.41446
299.282	0.40623
299.651	0.39779
300.021	0.38975
300.39	0.38165
300.759	0.37402
301.128	0.3669
301.497	0.36004
301.866	0.35372
302.235	0.34737
302.604	0.34133
302.973	0.33556
303.342	0.32962
303.71	0.32344
304.079	0.31708
304.448	0.31056
304.817	0.30379
305.185	0.29649
305.554	0.28932
305.923	0.28207
306.291	0.27461
306.66	0.26743
307.028	0.26051
307.397	0.25305
307.765	0.24591
308.133	0.23866
308.502	0.2315
308.87	0.22385
309.238	0.21628
309.606	0.2089
309.975	0.20177
310.343	0.19467
310.711	0.18789
311.079	0.18171
311.447	0.17565
311.815	0.17024
312.183	0.16577
312.551	0.16186
312.919	0.15871
313.286	0.15635
313.654	0.15481
314.022	0.15408
314.39	0.15342
314.757	0.15258
315.125	0.15206
315.492	0.15122
315.86	0.15008
316.228	0.14823
316.595	0.14625
316.962	0.14372
317.33	0.14055
317.697	0.13692
318.065	0.13284
318.432	0.1282
318.799	0.12323
319.166	0.11836
319.534	0.11336
319.901	0.10832
320.268	0.10371
320.635	0.09926
321.002	0.09471
321.369	0.08986
321.736	0.08464
322.103	0.07932
322.47	0.07406
322.836	0.06904
323.203	0.06402
323.57	0.05934
323.937	0.05501
324.303	0.05095
324.67	0.0472
325.037	0.04362
325.403	0.04046
325.77	0.03753
326.136	0.03496
326.503	0.03255
326.869	0.03034
327.235	0.0282
327.602	0.02586
327.968	0.02326
328.334	0.02047
328.7	0.01759
329.067	0.0147
329.433	0.01192
329.799	0.00923
330.165	0.00673
330.531	0.00427
330.897	0.00206
331.263	0.00019
331.629	-0.00162
331.995	-0.00317
332.36	-0.00454
332.726	-0.00578
333.092	-0.00696
333.458	-0.00792
333.823	-0.00893
334.189	-0.00978
334.554	-0.01067
334.92	-0.0116
335.286	-0.01237
335.651	-0.0132
336.016	-0.01396
336.382	-0.01473
336.747	-0.01549
337.113	-0.0163
337.478	-0.01709
337.843	-0.01789
338.208	-0.01868
338.573	-0.01943
338.939	-0.02017
339.304	-0.02081
339.669	-0.02148
340.034	-0.02223
340.399	-0.02279
340.764	-0.02349
341.129	-0.02407
341.493	-0.02459
341.858	-0.02518
342.223	-0.02555
342.588	-0.02593
342.952	-0.02635
343.317	-0.02676
343.682	-0.02729
344.046	-0.02775
344.411	-0.02816
344.775	-0.02848
345.14	-0.02873
345.504	-0.02898
345.869	-0.02918
346.233	-0.02938
346.597	-0.02968
346.962	-0.02994
347.326	-0.0302
347.69	-0.03039
348.054	-0.03069
348.418	-0.03086
348.782	-0.03114
349.146	-0.03132
349.51	-0.03147
349.874	-0.03169
350.238	-0.03185
350.602	-0.03202
350.966	-0.0322
351.33	-0.03222
351.693	-0.03225
352.057	-0.03227
352.421	-0.03227
352.784	-0.03227
353.148	-0.03227
353.512	-0.03227
353.875	-0.03227
354.239	-0.03227
354.602	-0.03227
354.966	-0.03227
355.329	-0.03227
355.692	-0.03227
356.056	-0.03227
356.419	-0.03227
356.782	-0.03227
357.145	-0.03227
357.508	-0.03227
357.871	-0.03227
358.234	-0.03227
358.597	-0.03227
358.96	-0.03227
359.323	-0.03227
359.686	-0.03227
360.049	-0.03227
360.412	-0.03227
360.775	-0.03227
361.137	-0.03227
361.5	-0.03227
361.863	-0.03227
362.225	-0.03227
362.588	-0.03227
362.951	-0.03227
363.313	-0.03227
363.675	-0.03227
364.038	-0.03227
364.4	-0.03227
364.763	-0.03227
365.125	-0.03227
365.487	-0.03227
365.849	-0.03227
366.212	-0.03227
366.574	-0.03227
366.936	-0.03227
367.298	-0.03227
367.66	-0.03227
368.022	-0.03227
368.384	-0.03227
368.746	-0.03227
369.108	-0.03227
369.469	-0.03227
369.831	-0.03227
370.193	-0.03227
370.555	-0.03227
370.916	-0.03227
371.278	-0.03227
371.64	-0.03227
372.001	-0.03227
372.363	-0.03227
372.724	-0.03227
373.086	-0.03227
373.447	-0.03227
373.808	-0.03227
374.17	-0.03227
374.531	-0.03227
374.892	-0.03227
375.253	-0.03227
375.615	-0.03227
375.976	-0.03227
376.337	-0.03227
376.698	-0.03227
377.059	-0.03227
377.42	-0.03227
377.781	-0.03227
378.141	-0.03227
378.502	-0.03227
378.863	-0.03227
379.224	-0.03227
379.585	-0.03227
379.945	-0.03227
380.306	-0.03227
380.666	-0.03227
381.027	-0.03227
381.388	-0.03227
381.748	-0.03227
382.108	-0.03227
382.469	-0.03227
382.829	-0.03227
383.19	-0.03227
383.55	-0.03227
383.91	-0.03227
384.27	-0.03227
384.63	-0.03227
384.991	-0.03227
385.351	-0.03227
385.711	-0.03227
386.071	-0.03227
386.431	-0.03227
386.791	-0.03227
387.15	-0.03227
387.51	-0.03227
387.87	-0.03227
388.23	-0.03227
388.589	-0.03227
388.949	-0.03227
389.309	-0.03227
389.668	-0.03227
390.028	-0.03227
390.387	-0.03227
390.747	-0.03227
391.106	-0.03227
391.466	-0.03227
391.825	-0.03227
392.184	-0.03227
392.544	-0.03227
392.903	-0.03227
393.262	-0.03227
393.621	-0.03227
393.98	-0.03227
394.339	-0.03227
394.698	-0.03227
395.057	-0.03227
395.416	-0.03227
395.775	-0.03227
396.134	-0.03227
396.493	-0.03227
396.852	-0.03227
397.211	-0.03227
397.569	-0.03227
397.928	-0.03227
398.287	-0.03227
398.645	-0.03227
399.004	-0.03227
399.362	-0.03227
399.721	-0.03227
400.079	-0.03227
400.438	-0.03227
400.796	-0.03227
401.154	-0.03227
401.512	-0.03227
401.871	-0.03227
402.229	-0.03227
402.587	-0.03227
402.945	-0.03227
403.303	-0.03227
403.661	-0.03227
404.019	-0.03227
404.377	-0.03227
404.735	-0.03227
405.093	-0.03227
405.451	-0.03227
405.808	-0.03227
406.166	-0.03227
406.524	-0.03227
406.882	-0.03227
407.239	-0.03227
407.597	-0.03227
407.954	-0.03227
408.312	-0.03227
408.669	-0.03227
409.027	-0.03227
409.384	-0.03227
409.741	-0.03227
410.099	-0.03227
410.456	-0.03227
410.813	-0.03227
411.17	-0.03227
411.527	-0.03227
411.884	-0.03227
412.242	-0.03227
412.599	-0.03227
412.956	-0.03227
413.312	-0.03227
413.669	-0.03227
414.026	-0.03227
414.383	-0.03227
414.74	-0.03227
415.096	-0.03227
415.453	-0.03227
415.81	-0.03227
416.166	-0.03227
416.523	-0.03227
416.879	-0.03227
417.236	-0.03227
417.592	-0.03227
417.949	-0.03227
418.305	-0.03227
418.661	-0.03227
419.018	-0.03227
419.374	-0.03227
419.73	-0.03211
420.086	-0.03161
420.442	-0.03039
420.798	-0.02869
421.154	-0.0266
421.51	-0.02353
421.866	-0.01958
422.222	-0.01486
422.578	-0.00924
422.934	-0.00257
423.29	0.00472
423.646	0.01268
424.001	0.02142
424.357	0.03107
424.713	0.04119
425.068	0.05172
425.424	0.06264
425.779	0.07376
426.135	0.08469
426.49	0.09564
426.845	0.10724
427.201	0.11892
427.556	0.13104
427.911	0.14255
428.266	0.15421
428.622	0.16568
428.977	0.17588
429.332	0.18435
429.687	0.19138
430.042	0.19604
430.397	0.19912
430.752	0.20203
431.107	0.2039
431.461	0.20455
431.816	0.20412
432.171	0.20319
432.526	0.20182
432.88	0.20055
433.235	0.19994
433.59	0.1998
433.944	0.20042
434.299	0.20107
434.653	0.20223
435.008	0.20276
435.362	0.20378
435.716	0.2046
436.071	0.20587
436.425	0.20768
436.779	0.21006
437.133	0.21319
437.487	0.21755
437.841	0.22237
438.195	0.22681
438.549	0.23156
438.903	0.237
439.257	0.24274
439.611	0.24848
439.965	0.25443
440.319	0.26069
440.673	0.26617
441.026	0.27188
441.38	0.27706
441.734	0.28121
442.087	0.28499
442.441	0.28831
442.794	0.29037
443.148	0.29196
443.501	0.29292
443.855	0.29258
444.208	0.29204
444.561	0.29055
444.915	0.28857
445.268	0.28624
445.621	0.28341
445.974	0.28026
446.327	0.27638
446.68	0.27193
447.033	0.26734
447.386	0.26318
447.739	0.25818
448.092	0.25363
448.445	0.24879
448.798	0.24429
449.15	0.24035
449.503	0.2363
449.856	0.23226
450.209	0.22909
450.561	0.22587
450.914	0.22245
451.266	0.21991
451.619	0.21771
451.971	0.21612
452.323	0.21483
452.676	0.21354
453.028	0.21283
453.38	0.21213
453.733	0.21153
454.085	0.21109
454.437	0.21181
454.789	0.21192
455.141	0.21229
455.493	0.21262
455.845	0.21301
456.197	0.2132
456.549	0.21369
456.901	0.21394
457.253	0.21447
457.604	0.2148
457.956	0.21539
458.308	0.21596
458.659	0.21654
459.011	0.21688
459.362	0.21715
459.714	0.21775
460.065	0.21805
460.417	0.21819
460.768	0.21848
461.12	0.21867
461.471	0.21929
461.822	0.21899
462.173	0.21908
462.525	0.21874
462.876	0.21846
463.227	0.21871
463.578	0.21873
463.929	0.21861
464.28	0.21861
464.631	0.21841
464.982	0.21802
465.332	0.21774
465.683	0.21734
466.034	0.21684
466.385	0.21627
466.735	0.21571
467.086	0.21478
467.437	0.21421
467.787	0.21327
468.138	0.21231
468.488	0.21162
468.839	0.21101
469.189	0.20996
469.539	0.20886
469.89	0.20822
470.24	0.20722
470.59	0.20605
470.94	0.20494
471.29	0.20315
471.64	0.20181
471.99	0.2002
472.34	0.19826
472.69	0.19613
473.04	0.19429
473.39	0.19223
473.74	0.19043
474.09	0.18787
474.439	0.18564
474.789	0.18284
475.139	0.18036
475.488	0.17731
475.838	0.17454
476.188	0.17099
476.537	0.16767
476.886	0.16448
477.236	0.16097
477.585	0.15751
477.935	0.15375
478.284	0.15014
478.633	0.14667
478.982	0.14287
479.331	0.13925
479.68	0.13603
480.03	0.13257
480.379	0.12877
480.728	0.125
481.076	0.12129
481.425	0.11792
481.774	0.11397
482.123	0.11039
482.472	0.10649
482.821	0.10334
483.169	0.09987
483.518	0.0969
483.866	0.09402
484.215	0.09124
484.563	0.08854
484.912	0.08613
485.26	0.08377
485.609	0.08148
485.957	0.07939
486.305	0.07747
486.654	0.0756
487.002	0.07382
487.35	0.07222
487.698	0.07091
488.046	0.06964
488.394	0.06833
488.742	0.06727
489.09	0.06669
489.438	0.06614
489.786	0.06578
490.134	0.06532
490.482	0.06494
490.829	0.06463
491.177	0.06432
491.525	0.0639
491.872	0.06374
492.22	0.06348
492.567	0.06333
492.915	0.06314
493.262	0.06295
493.61	0.06269
493.957	0.06265
494.304	0.06254
494.652	0.06232
494.999	0.0622
495.346	0.06189
495.693	0.06158
496.04	0.06143
496.387	0.06105
496.734	0.06069
497.081	0.06021
497.428	0.0598
497.775	0.05933
498.122	0.05866
498.469	0.05824
498.816	0.05766
499.162	0.05701
499.509	0.05618
499.856	0.05529
500.202	0.05441
500.549	0.05355
500.895	0.05264
501.242	0.05164
501.588	0.05043
501.935	0.04932
502.281	0.04807
502.627	0.04694
502.973	0.04571
503.32	0.04427
503.666	0.04297
504.012	0.0416
504.358	0.0403
504.704	0.03876
505.05	0.03731
505.396	0.03583
505.742	0.03415
506.088	0.03257
506.433	0.0309
506.779	0.02934
507.125	0.02773
507.471	0.02618
507.816	0.02458
508.162	0.02288
508.507	0.02126
508.853	0.01965
509.198	0.01793
509.544	0.01618
509.889	0.01452
510.234	0.0129
510.58	0.01126
510.925	0.00961
511.27	0.00794
511.615	0.0063
511.96	0.00472
512.306	0.0031
512.651	0.00145
512.996	-0.00009
513.341	-0.00171
513.685	-0.0032
514.03	-0.00476
514.375	-0.00623
514.72	-0.0078
515.065	-0.00936
515.409	-0.01083
515.754	-0.0124
516.099	-0.01385
516.443	-0.01528
516.788	-0.01666
517.132	-0.0181
517.476	-0.01948
517.821	-0.02077
518.165	-0.02203
518.51	-0.02316
518.854	-0.02427
519.198	-0.02529
519.542	-0.02622
519.886	-0.02704
520.23	-0.02784
520.574	-0.02854
520.918	-0.02924
521.262	-0.02985
521.606	-0.03037
521.95	-0.03084
522.294	-0.03122
522.638	-0.03156
522.981	-0.03182
523.325	-0.03203
523.669	-0.03217
524.012	-0.03224
524.356	-0.03227
524.699	-0.03228
525.043	-0.03227
525.386	-0.03227
525.73	-0.03227
526.073	-0.03227
526.416	-0.03227
526.76	-0.03227
527.103	-0.03227
527.446	-0.03227
527.789	-0.03227
528.132	-0.03227
528.475	-0.03227
528.818	-0.03227
529.161	-0.03227
529.504	-0.03227
529.847	-0.03227
530.19	-0.03227
530.532	-0.03227
530.875	-0.03227
531.218	-0.03227
531.56	-0.03227
531.903	-0.03227
532.246	-0.03227
532.588	-0.03227
532.93	-0.03227
533.273	-0.03227
533.615	-0.03227
533.958	-0.03227
534.3	-0.03227
534.642	-0.03227
534.984	-0.03227
535.326	-0.03227
535.669	-0.03227
536.011	-0.03227
536.353	-0.03227
536.695	-0.03227
537.037	-0.03227
537.378	-0.03227
537.72	-0.03227
538.062	-0.03227
538.404	-0.03227
538.746	-0.03227
539.087	-0.03227
539.429	-0.03227
539.77	-0.03227
540.112	-0.03227
540.454	-0.03227
540.795	-0.03227
541.136	-0.03227
541.478	-0.03227
541.819	-0.03227
542.16	-0.03227
542.502	-0.03227
542.843	-0.03227
543.184	-0.03227
543.525	-0.03227
543.866	-0.03227
544.207	-0.03227
544.548	-0.03227
544.889	-0.03227
545.23	-0.03227
545.571	-0.03227
545.911	-0.03227
546.252	-0.03227
546.593	-0.03227
546.934	-0.03227
547.274	-0.03227
547.615	-0.03227
547.955	-0.03227
548.296	-0.03227
548.636	-0.03227
548.977	-0.03227
549.317	-0.03227
549.657	-0.03227
549.997	-0.03227
550.338	-0.03227
550.678	-0.03227
551.018	-0.03227
551.358	-0.03227
551.698	-0.03227
552.038	-0.03227
552.378	-0.03227
552.718	-0.03227
553.058	-0.03227
553.398	-0.03227
553.737	-0.03227
554.077	-0.03227
554.417	-0.03227
554.756	-0.03227
555.096	-0.03227
555.435	-0.03227
555.775	-0.03227
556.114	-0.03227
556.454	-0.03227
556.793	-0.03227
557.133	-0.03227
557.472	-0.03227
557.811	-0.03227
558.15	-0.03227
558.489	-0.03227
558.829	-0.03227
559.168	-0.03227
559.507	-0.03227
559.846	-0.03227
560.184	-0.03227
560.523	-0.03227
560.862	-0.03227
561.201	-0.03227
561.54	-0.03227
561.878	-0.03227
562.217	-0.03227
562.556	-0.03227
562.894	-0.03227
563.233	-0.03227
563.571	-0.03227
563.91	-0.03227
564.248	-0.03227
564.586	-0.03227
564.925	-0.03227
565.263	-0.03227
565.601	-0.03227
565.939	-0.03227
566.277	-0.03227
566.616	-0.03227
566.954	-0.03227
567.292	-0.03227
567.63	-0.03227
567.967	-0.03227
568.305	-0.03227
568.643	-0.03227
568.981	-0.03227
569.319	-0.03227
569.656	-0.03227
569.994	-0.03227
570.331	-0.03227
570.669	-0.03227
571.006	-0.03227
571.344	-0.03227
571.681	-0.03227
572.019	-0.03227
572.356	-0.03227
572.693	-0.03227
573.03	-0.03227
573.368	-0.03227
573.705	-0.03227
574.042	-0.03227
574.379	-0.03227
574.716	-0.03227
575.053	-0.03227
575.39	-0.03227
575.727	-0.03227
576.063	-0.03227
576.4	-0.03227
576.737	-0.03227
577.074	-0.03227
577.41	-0.03227
577.747	-0.03227
578.083	-0.03227
578.42	-0.03227
578.756	-0.03227
579.093	-0.03227
579.429	-0.03227
579.766	-0.03227
580.102	-0.03227
580.438	-0.03227
580.774	-0.03227
581.11	-0.03227
581.446	-0.03227
581.782	-0.03227
582.119	-0.03227
582.454	-0.03227
582.79	-0.03227
583.126	-0.03227
583.462	-0.03227
583.798	-0.03227
584.134	-0.03227
584.469	-0.03227
584.805	-0.03227
585.141	-0.03227
585.476	-0.03227
585.812	-0.03227
586.147	-0.03227
586.482	-0.03227
586.818	-0.03227
587.153	-0.03227
587.488	-0.03227
587.824	-0.03227
588.159	-0.03227
588.494	-0.03227
588.829	-0.03227
589.164	-0.03227
589.499	-0.03227
589.834	-0.03227
590.169	-0.03227
590.504	-0.03227
590.839	-0.03227
591.174	-0.03227
591.508	-0.03227
591.843	-0.03227
592.178	-0.03227
592.512	-0.03227
592.847	-0.03227
593.181	-0.03227
593.516	-0.03227
593.85	-0.03227
594.185	-0.03227
594.519	-0.03227
594.853	-0.03227
595.187	-0.03227
595.522	-0.03227
595.856	-0.03227
596.19	-0.03227
596.524	-0.03227
596.858	-0.03227
597.192	-0.03227
597.526	-0.03227
597.86	-0.03227
598.194	-0.03227
598.527	-0.03227
598.861	-0.03227
599.195	-0.03227
599.528	-0.03227
599.862	-0.03227
600.196	-0.03227
600.529	-0.03227
600.863	-0.03227
601.196	-0.03227
601.529	-0.03227
601.863	-0.03227
602.196	-0.03227
602.529	-0.03227
602.862	-0.03227
603.196	-0.03227
603.529	-0.03227
603.862	-0.03227
604.195	-0.03227
604.528	-0.03227
604.861	-0.03227
605.193	-0.03227
605.526	-0.03227
605.859	-0.03227
606.192	-0.03227
606.524	-0.03227
606.857	-0.03227
607.19	-0.03227
607.522	-0.03227
607.855	-0.03227
608.187	-0.03227
608.52	-0.03227
608.852	-0.03227
609.184	-0.03227
609.517	-0.03227
609.849	-0.03227
610.181	-0.03227
610.513	-0.03227
610.845	-0.03227
611.177	-0.03227
611.509	-0.03227
611.841	-0.03227
612.173	-0.03227
612.505	-0.03227
612.837	-0.03227
613.169	-0.03227
613.5	-0.03227
613.832	-0.03227
614.164	-0.03227
614.495	-0.03227
614.827	-0.03227
615.158	-0.03227
615.49	-0.03227
615.821	-0.03227
616.152	-0.03227
616.484	-0.03227
616.815	-0.03227
617.146	-0.03227
617.477	-0.03227
617.808	-0.03227
618.14	-0.03227
618.471	-0.03227
618.802	-0.03227
619.133	-0.03227
619.463	-0.03227
619.794	-0.03227
620.125	-0.03227
620.456	-0.03227
620.787	-0.03227
621.117	-0.03227
621.448	-0.03227
621.778	-0.03227
622.109	-0.03227
622.439	-0.03227
622.77	-0.03227
623.1	-0.03227
623.43	-0.03227
623.761	-0.03227
624.091	-0.03227
624.421	-0.03227
624.751	-0.03227
625.081	-0.03227
625.412	-0.03227
625.742	-0.03227
626.072	-0.03227
626.401	-0.03227
626.731	-0.03227
627.061	-0.03227
627.391	-0.03227
627.721	-0.03227
628.05	-0.03227
628.38	-0.03227
628.71	-0.03227
629.039	-0.03227
629.369	-0.03227
629.698	-0.03227
630.028	-0.03227
630.357	-0.03227
630.686	-0.03227
631.015	-0.03227
631.345	-0.03227
631.674	-0.03227
632.003	-0.03227
632.332	-0.03227
632.661	-0.03227
632.99	-0.03227
633.319	-0.03227
633.648	-0.03227
633.977	-0.03227
634.306	-0.03227
634.634	-0.03227
634.963	-0.03227
635.292	-0.03227
635.62	-0.03227
635.949	-0.03227
636.277	-0.03227
636.606	-0.03227
636.934	-0.03227
637.263	-0.03227
637.591	-0.03227
637.919	-0.03227
638.248	-0.03227
638.576	-0.03227
638.904	-0.03227
639.232	-0.03227
639.56	-0.03227
639.888	-0.03227
640.216	-0.03227
640.544	-0.03227
640.872	-0.03227
641.2	-0.03227
641.528	-0.03227
641.855	-0.03227
642.183	-0.03227
642.511	-0.03227
642.838	-0.03227
643.166	-0.03227
643.493	-0.03227
643.821	-0.03227
644.148	-0.03227
644.475	-0.03227
644.803	-0.03227
645.13	-0.03227
645.457	-0.03227
645.784	-0.03227
646.112	-0.03227
646.439	-0.03227
646.766	-0.03227
647.093	-0.03227
647.42	-0.03227
647.746	-0.03227
648.073	-0.03227
648.4	-0.03227
648.727	-0.03227
649.053	-0.03227
649.38	-0.03227
649.707	-0.03227
650.033	-0.03227
650.36	-0.03227
650.686	-0.03227
651.013	-0.03227
651.339	-0.03227
651.665	-0.03227
651.992	-0.03227
652.318	-0.03227
652.644	-0.03227
652.97	-0.03227
653.296	-0.03227
653.622	-0.03227
653.948	-0.03227
654.274	-0.03227
654.6	-0.03227
654.926	-0.03227
655.252	-0.03227
655.578	-0.03227
655.903	-0.03227
656.229	-0.03227
656.555	-0.03227
656.88	-0.03227
657.206	-0.03227
657.531	-0.03227
657.857	-0.03227
658.182	-0.03227
658.507	-0.03227
658.833	-0.03227
659.158	-0.03227
659.483	-0.03227
659.808	-0.03227
660.133	-0.03227
660.458	-0.03227
660.783	-0.03227
661.108	-0.03227
661.433	-0.03227
661.758	-0.03227
662.083	-0.03227
662.408	-0.03227
662.732	-0.03227
663.057	-0.03227
663.382	-0.03227
663.706	-0.03227
664.031	-0.03227
664.355	-0.03227
664.68	-0.03227
665.004	-0.03227
665.328	-0.03227
665.653	-0.03227
665.977	-0.03227
666.301	-0.03227
666.625	-0.03227
666.949	-0.03227
667.273	-0.03227
667.597	-0.03227
667.921	-0.03227
668.245	-0.03227
668.569	-0.03227
668.893	-0.03227
669.217	-0.03227
669.54	-0.03227
669.864	-0.03227
670.188	-0.03227
670.511	-0.03227
670.835	-0.03227
671.158	-0.03227
671.482	-0.03227
671.805	-0.03227
672.128	-0.03227
672.452	-0.03227
672.775	-0.03227
673.098	-0.03227
673.421	-0.03227
673.744	-0.03227
674.068	-0.03227
674.391	-0.03227
674.714	-0.03227
675.036	-0.03227
675.359	-0.03227
675.682	-0.03227
676.005	-0.03227
676.328	-0.03227
676.65	-0.03227
676.973	-0.03227
677.295	-0.03227
677.618	-0.03227
677.94	-0.03227
678.263	-0.03227
678.585	-0.03227
678.908	-0.03227
679.23	-0.03227
679.552	-0.03227
679.874	-0.03227
680.196	-0.03227
680.519	-0.03227
680.841	-0.03227
681.163	-0.03227
681.485	-0.03227
681.807	-0.03227
682.128	-0.03227
682.45	-0.03227
682.772	-0.03227
683.094	-0.03227
683.415	-0.03227
683.737	-0.03227
684.059	-0.03227
684.38	-0.03227
684.702	-0.03227
685.023	-0.03227
685.344	-0.03227
685.666	-0.03227
685.987	-0.03227
686.308	-0.03227
686.629	-0.03227
686.95	-0.03227
687.272	-0.03227
687.593	-0.03227
687.914	-0.03227
688.235	-0.03227
688.555	-0.03227
688.876	-0.03227
689.197	-0.03227
689.518	-0.03227
689.839	-0.03227
690.159	-0.03227
690.48	-0.03227
690.8	-0.03227
691.121	-0.03227
691.441	-0.03227
691.762	-0.03227
692.082	-0.03227
692.402	-0.03227
692.723	-0.03227
693.043	-0.03227
693.363	-0.03227
693.683	-0.03227
694.003	-0.03227
694.323	-0.03227
694.643	-0.03227
694.963	-0.03227
695.283	-0.03227
695.603	-0.03227
695.923	-0.03227
696.243	-0.03227
696.562	-0.03227
696.882	-0.03227
697.202	-0.03227
697.521	-0.03227
697.841	-0.03227
698.16	-0.03227
698.479	-0.03227
698.799	-0.03227
699.118	-0.03227
699.437	-0.03227
699.757	-0.03227
700.076	-0.03227
700.395	-0.03227
700.714	-0.03227
701.033	-0.03227
701.352	-0.03227
701.671	-0.03227
701.99	-0.03227
702.308	-0.03227
702.627	-0.03227
702.946	-0.03227
703.265	-0.03227
703.583	-0.03227
703.902	-0.03227
704.22	-0.03227
704.539	-0.03227
704.857	-0.03227
705.176	-0.03227
705.494	-0.03227
705.812	-0.03227
706.131	-0.03227
706.449	-0.03227
706.767	-0.03227
707.085	-0.03227
707.403	-0.03227
707.721	-0.03227
708.039	-0.03227
708.357	-0.03227
708.675	-0.03227
708.993	-0.03227
709.31	-0.03227
709.628	-0.03227
709.946	-0.03227
710.263	-0.03227
710.581	-0.03227
710.898	-0.03227
711.216	-0.03227
711.533	-0.03227
711.851	-0.03227
712.168	-0.03227
712.485	-0.03227
712.802	-0.03227
713.12	-0.03227
713.437	-0.03227
713.754	-0.03227
714.071	-0.03227
714.388	-0.03227
714.705	-0.03227
715.022	-0.03227
715.338	-0.03227
715.655	-0.03227
715.972	-0.03227
716.289	-0.03227
716.605	-0.03227
716.922	-0.03227
717.238	-0.03227
717.555	-0.03227
717.871	-0.03227
718.188	-0.03227
718.504	-0.03227
718.82	-0.03227
719.136	-0.03227
719.453	-0.03227
719.769	-0.03227
720.085	-0.03227
720.401	-0.03227
720.717	-0.03227
721.033	-0.03227
721.349	-0.03227
721.665	-0.03227
721.98	-0.03227
722.296	-0.03227
722.612	-0.03227
722.927	-0.03227
723.243	-0.03227
723.559	-0.03227
723.874	-0.03227
724.19	-0.03227
724.505	-0.03227
724.82	-0.03227
725.136	-0.03227
725.451	-0.03227
725.766	-0.03227
726.081	-0.03227
726.396	-0.03227
726.711	-0.03227
727.026	-0.03227
727.341	-0.03227
727.656	-0.03227
727.971	-0.03227
728.286	-0.03227
728.601	-0.03227
728.916	-0.03227
729.23	-0.03227
729.545	-0.03227
729.859	-0.03227
730.174	-0.03227
730.488	-0.03227
730.803	-0.03227
731.117	-0.03227
731.431	-0.03227
731.746	-0.03227
732.06	-0.03227
732.374	-0.03227
732.688	-0.03227
733.002	-0.03227
733.316	-0.03227
733.63	-0.03227
733.944	-0.03227
734.258	-0.03227
734.572	-0.03227
734.886	-0.03227
735.199	-0.03227
735.513	-0.03227
735.827	-0.03227
736.14	-0.03227
736.454	-0.03227
736.767	-0.03227
737.081	-0.03227
737.394	-0.03227
737.708	-0.03227
738.021	-0.03227
738.334	-0.03227
738.647	-0.03227
738.96	-0.03226
739.273	-0.03226
739.587	-0.03224
739.9	-0.0322
740.212	-0.03218
740.525	-0.03209
740.838	-0.03203
741.151	-0.03192
741.464	-0.03177
741.776	-0.03152
742.089	-0.03134
742.402	-0.03109
742.714	-0.03079
743.027	-0.03045
743.339	-0.0301
743.651	-0.02966
743.964	-0.02927
744.276	-0.02876
744.588	-0.02827
744.901	-0.02774
745.213	-0.02711
745.525	-0.02643
745.837	-0.02573
746.149	-0.025
746.461	-0.02426
746.773	-0.02335
747.085	-0.02252
747.396	-0.0216
747.708	-0.02069
748.02	-0.01978
748.331	-0.01891
748.643	-0.0179
748.955	-0.01693
749.266	-0.01596
749.577	-0.01497
749.889	-0.01394
750.2	-0.01291
750.512	-0.01181
750.823	-0.01084
751.134	-0.0099
751.445	-0.00895
751.756	-0.00811
752.067	-0.00731
752.378	-0.00649
752.689	-0.00577
753	-0.00503
753.311	-0.00445
753.622	-0.00384
753.932	-0.00327
754.243	-0.00275
754.554	-0.00218
754.864	-0.00172
755.175	-0.00128
755.485	-0.00087
755.796	-0.00056
756.106	-0.00026
756.417	-0
756.727	0.00019
757.037	0.00039
757.347	0.00055
757.658	0.00084
757.968	0.00112
758.278	0.00146
758.588	0.00172
758.898	0.00198
759.208	0.00233
759.517	0.00265
759.827	0.00298
760.137	0.00329
760.447	0.00364
760.756	0.00394
761.066	0.0042
761.375	0.00453
761.685	0.00487
761.994	0.00528
762.304	0.0057
762.613	0.0061
762.922	0.00647
763.232	0.00685
763.541	0.00715
763.85	0.00762
764.159	0.00798
764.468	0.00823
764.777	0.00849
765.086	0.00886
765.395	0.0092
765.704	0.0095
766.013	0.00978
766.321	0.0101
766.63	0.01041
766.939	0.01069
767.247	0.01105
767.556	0.01128
767.864	0.01153
768.173	0.01173
768.481	0.01178
768.789	0.0119
769.098	0.01207
769.406	0.01222
769.714	0.0123
770.022	0.01239
770.33	0.01238
770.638	0.01249
770.946	0.01254
771.254	0.01255
771.562	0.01252
771.87	0.01245
772.178	0.01227
772.486	0.01217
772.793	0.01204
773.101	0.01197
773.408	0.01174
773.716	0.01148
774.023	0.01145
774.331	0.0113
774.638	0.01103
774.946	0.01083
775.253	0.01063
775.56	0.01033
775.867	0.01007
776.174	0.00982
776.481	0.00945
776.788	0.00925
777.095	0.00887
777.402	0.00851
777.709	0.00823
778.016	0.00786
778.323	0.00756
778.63	0.00737
778.936	0.00705
779.243	0.0068
779.549	0.00633
779.856	0.00613
780.162	0.00586
780.469	0.00541
780.775	0.00506
781.082	0.00472
781.388	0.00443
781.694	0.00411
782	0.00377
782.306	0.00335
782.612	0.00294
782.918	0.0027
783.224	0.00227
783.53	0.00186
783.836	0.00151
784.142	0.00106
784.448	0.00062
784.753	0.00026
785.059	-0.00017
785.365	-0.00057
785.67	-0.00099
785.976	-0.0013
786.281	-0.00182
786.586	-0.00227
786.892	-0.00265
787.197	-0.00316
787.502	-0.0036
787.808	-0.00409
788.113	-0.00454
788.418	-0.00499
788.723	-0.00541
789.028	-0.0059
789.333	-0.00625
789.638	-0.00672
789.942	-0.00713
790.247	-0.00765
790.552	-0.00808
790.857	-0.00855
791.161	-0.00912
791.466	-0.00966
791.77	-0.01009
792.075	-0.01065
792.379	-0.0113
792.684	-0.01189
792.988	-0.01244
793.292	-0.01299
793.597	-0.01356
793.901	-0.01419
794.205	-0.01474
794.509	-0.01533
794.813	-0.01607
795.117	-0.0167
795.421	-0.01734
795.725	-0.01807
796.029	-0.01881
796.332	-0.01954
796.636	-0.02015
796.94	-0.02084
797.243	-0.02155
797.547	-0.02222
797.85	-0.02295
798.154	-0.02385
798.457	-0.02475
798.761	-0.0254
799.064	-0.02607
799.367	-0.02687
799.67	-0.02772
799.973	-0.02859
800.277	-0.02927
800.58	-0.03003
800.883	-0.03095
801.186	-0.0316
801.488	-0.03239
801.791	-0.03317
802.094	-0.03394
802.397	-0.03477
802.699	-0.03553
803.002	-0.03633
803.305	-0.03709
803.607	-0.03788
803.91	-0.03883
804.212	-0.03949
804.515	-0.04015
804.817	-0.04088
805.119	-0.04172
805.421	-0.04277
805.724	-0.04352
806.026	-0.04455
806.328	-0.04543
806.63	-0.04649
806.932	-0.04751
807.234	-0.04863
807.535	-0.04979
807.837	-0.05087
808.139	-0.05198
808.441	-0.05321
808.742	-0.05432
809.044	-0.05564
809.346	-0.05689
809.647	-0.05819
809.948	-0.05946
810.25	-0.06048
810.551	-0.06176
810.853	-0.06311
811.154	-0.06455
811.455	-0.06602
811.756	-0.06744
812.057	-0.06909
812.358	-0.07053
812.659	-0.07192
812.96	-0.07331
813.261	-0.07499
813.562	-0.07652
813.863	-0.07818
814.163	-0.07987
814.464	-0.08155
814.765	-0.08321
815.065	-0.08501
815.366	-0.08657
815.666	-0.08807
815.967	-0.09001
816.267	-0.09188
816.567	-0.09409
816.868	-0.09641
817.168	-0.09857
817.468	-0.10048
817.768	-0.10235
818.068	-0.10418
818.368	-0.10608
818.668	-0.10833
818.968	-0.11067
819.268	-0.11291
819.568	-0.11507
819.867	-0.11733
820.167	-0.11957
820.467	-0.12221
820.766	-0.12479
821.066	-0.12715
821.365	-0.12945
821.665	-0.13236
821.964	-0.1356
822.263	-0.13842
822.563	-0.14116
822.862	-0.14402
823.161	-0.14673
823.46	-0.1498
823.759	-0.15308
824.058	-0.15676
824.357	-0.16042
824.656	-0.16383
824.955	-0.16717
825.254	-0.17059
825.552	-0.17454
825.851	-0.17861
826.15	-0.18229
826.448	-0.18653
826.747	-0.18998
827.045	-0.19385
827.344	-0.19832
827.642	-0.2034
827.941	-0.20811
828.239	-0.21247
828.537	-0.21725
828.835	-0.22232
829.133	-0.22719
829.432	-0.23311
829.73	-0.23913
830.028	-0.24531
830.325	-0.2511
830.623	-0.25699
830.921	-0.26422
831.219	-0.27179
831.517	-0.28004
831.814	-0.28779
832.112	-0.29538
832.409	-0.30342
832.707	-0.31166
833.004	-0.32183
833.302	-0.33268
833.599	-0.3442
833.896	-0.35502
834.194	-0.36516
834.491	-0.37685
834.788	-0.39021
835.085	-0.40377
835.382	-0.41893
835.679	-0.4329
835.976	-0.44827
836.273	-0.4662
836.57	-0.48596
836.866	-0.50826
837.163	-0.53112
837.46	-0.55444
837.756	-0.57819
838.053	-0.60513
838.349	-0.63568
838.646	-0.67241
838.942	-0.71243
839.239	-0.75508
839.535	-0.80001
839.831	-0.85163
840.127	-0.91525
840.423	-1.00745
840.72	-1.12761
841.016	-1.29522
841.312	-1.56561
841.607	-2.5495
841.903	-0
842.199	-0
842.495	-0
842.791	-0
843.086	-0
843.382	-0
843.677	-0
843.973	-0
844.268	-0
844.564	-0
844.859	-0
845.154	-0
845.45	-0
845.745	-0
846.04	-0
846.335	-0
846.63	-0
846.925	-0
847.22	-0
847.515	-0
847.81	-0
848.104	-0
848.399	-0
848.694	-0
848.988	-0
849.283	-0
849.578	-0
849.872	-0
850.166	-0
850.461	-0
850.755	-0
851.049	-0
851.343	-0
851.638	-0
851.932	-0
852.226	-0
852.52	-0
852.814	-0
853.107	-0
853.401	-0
853.695	-0
853.989	-0
854.282	-0
854.576	-0
854.869	-0
855.163	-0
855.456	-0
855.75	-0
856.043	-0
856.336	-0
856.63	-0
856.923	-0
857.216	-0
857.509	-0
857.802	-0
858.095	-0
858.388	-0
858.681	-0
858.974	-0
859.266	-0
859.559	-0
859.852	-0
860.144	-0
860.437	-0
860.729	-0
861.022	-0
861.314	-0
861.606	-0
861.899	-0
862.191	-0
862.483	-0
862.775	-0
863.067	-0
863.359	-0
863.651	-0
863.943	-0
864.235	-0
864.527	-0
864.819	-0
865.11	-0
865.402	-0
865.693	-0
865.985	-0
866.276	-0
866.568	-0
866.859	-0
867.151	-0
867.442	-0
867.733	-0
868.024	-0
868.315	-0
868.606	-0
868.897	-0
869.188	-0
869.479	-0
869.77	-0
870.061	-0
870.351	-0
870.642	-0
870.933	-0
871.223	-0
871.514	-0
871.804	-0
872.095	-0
872.385	-0
872.675	-0
